# Created by MD - Bulk Evaluation, Folder: ./EMD_LJ
# t λ(t) ACF_λ
# ps W/(m*K) eV^2/(Å^4*ps)
0.0 0.0 0.024049180875677936
0.005 4.385453563341021e6 0.02388969837242333
0.01 8.714799768208649e6 0.023435852323924495
0.015 1.2937394884000245e7 0.022722766036941067
0.02 1.7010517356794488e7 0.021801916203053665
0.025 2.090161777162913e7 0.020733021229252493
0.03 2.4589095240562536e7 0.019576044768157927
0.035 2.8061765091479395e7 0.018384886352681335
0.04 3.131739278490464e7 0.0172034833832383
0.045 3.436073218286515e7 0.016064291044789264
0.05 3.720145727336052e7 0.014988637716942607
0.055 3.985226862121687e7 0.013988279557166274
0.06 4.232733541087931e7 0.013067514386806664
0.065 4.4641130420418404e7 0.012225363069327809
0.07 4.680764171430754e7 0.011457506172655878
0.075 4.883990243727276e7 0.01075782457745857
0.08 5.074976319824907e7 0.01011951070354319
0.085 5.254783222308466e7 0.009535791220499915
0.09 5.424351946222809e7 0.009000340704226556
0.095 5.584513623708618e7 0.00850747509240336
0.1 5.736001738185952e7 0.008052204134753002
0.105 5.8794645658076145e7 0.0076302037863710485
0.11 6.0154767524009e7 0.007237749311730003
0.115 6.144549541160183e7 0.006871634689666718
0.12 6.267139545885609e7 0.0065290942171039885
0.125 6.383656206912159e7 0.006207736905760584
0.13 6.494468192285447e7 0.005905496786776052
0.135 6.5999090013447806e7 0.005620595418535315
0.14 6.7002819122278735e7 0.005351507660670149
0.145 6.795864291197975e7 0.005096926138737078
0.15 6.886911268593977e7 0.004855727542917036
0.155 6.973658899333945e7 0.004626949984136099
0.16 7.056327079461183e7 0.004409788970091374
0.165 7.13512255210278e7 0.004203611203241459
0.17 7.210242226943073e7 0.004007975054172839
0.17500000000000002 7.281876767320135e7 0.0038226393430124757
0.18 7.350214057866491e7 0.0036475414999210054
0.185 7.415441893068291e7 0.003482734240525484
0.19 7.477749163087204e7 0.0033282846212032593
0.195 7.537325024210522e7 0.003184154676676411
0.2 7.594355976054911e7 0.0030500919625445874
0.20500000000000002 7.649021293358247e7 0.0029255591472292382
0.21 7.70148770722105e7 0.0028097223747893378
0.215 7.751904447697999e7 0.0027015024025299293
0.22 7.800399675794813e7 0.002599675344000901
0.225 7.847078992024931e7 0.0025029989217700507
0.23 7.892026230247943e7 0.0024103360265688286
0.23500000000000001 7.935306272018263e7 0.0023207520269556913
0.24 7.97696927132871e7 0.002233571634690023
0.245 8.017055527680558e7 0.002148392910148044
0.25 8.055600302192396e7 0.0020650670302655365
0.255 8.092638075487427e7 0.0019836574995086152
0.26 8.128206003413619e7 0.0019043932513036843
0.265 8.162346549068163e7 0.0018276255056102423
0.27 8.195109380756938e7 0.0017537906682691864
0.275 8.226552607212162e7 0.0016833749850350857
0.28 8.256743317585087e7 0.0016168738902028782
0.28500000000000003 8.28575729328829e7 0.0015547421300186228
0.29 8.31367774008741e7 0.0014973365394363811
0.295 8.340592982735264e7 0.0014448598573395877
0.3 8.366593236542949e7 0.001397316008175249
0.305 8.391766739630593e7 0.0013544849340545457
0.31 8.416195637403816e7 0.0013159206775872714
0.315 8.439952033892407e7 0.001280971539347057
0.32 8.463094581733821e7 0.0012488188014675087
0.325 8.485665929321793e7 0.0012185317036934027
0.33 8.50769131008324e7 0.0011891373172333445
0.335 8.529178507822603e7 0.00115970109350142
0.34 8.550119321060334e7 0.0011294101755165873
0.34500000000000003 8.570492473982051e7 0.0010976482204089679
0.35000000000000003 8.590267707951014e7 0.0010640496282817262
0.355 8.60941059157676e7 0.0010285238611891152
0.36 8.627887475088507e7 0.0009912468985683444
0.365 8.64567001703458e7 0.0009526230313357295
0.37 8.662738808054481e7 0.0009132243657361535
0.375 8.679085780623604e7 0.0008737186100464951
0.38 8.694715297704446e7 0.0008347968746630302
0.385 8.709644017192394e7 0.0007971120499780361
0.39 8.723899787787463e7 0.0007612345503786107
0.395 8.737519905493805e7 0.0007276266783157634
0.4 8.750549030074807e7 0.00069663108881215
0.405 8.76303695767958e7 0.0006684666025858761
0.41000000000000003 8.775036330842671e7 0.0006432255469475466
0.41500000000000004 8.786600286277623e7 0.0006208696149782696
0.42 8.79778002824733e7 0.0006012258708577394
0.425 8.808622375971614e7 0.0005839879064935641
0.43 8.819167426579964e7 0.0005687273154969053
0.435 8.829446540808906e7 0.0005549174995287422
0.44 8.839480863542897e7 0.000541968327520218
0.445 8.849280551809749e7 0.0005292688106864809
0.45 8.858844827647014e7 0.0005162345969679848
0.455 8.868162897612591e7 0.000502355212395076
0.46 8.877215671457776e7 0.0004872341788875361
0.465 8.885978082880962e7 0.0004706147119303058
0.47000000000000003 8.89442171079264e7 0.0004523868728046269
0.47500000000000003 8.902517371907473e7 0.00043257728201180417
0.48 8.9102374251965e7 0.00041132790833268014
0.485 8.91755767195218e7 0.00038887307480182
0.49 8.924458876646645e7 0.0003655210003733954
0.495 8.930927998792064e7 0.00034164066692433053
0.5 8.936959186761093e7 0.00031764893127434363
0.505 8.94255447599679e7 0.0002939910990062706
0.51 8.94772404039384e7 0.0002711115062697619
0.515 8.952485838472676e7 0.0002494167807317163
0.52 8.956864597481303e7 0.0002292402072828234
0.525 8.960890250921212e7 0.00021081761424890258
0.53 8.964596101861636e7 0.0001942815121676856
0.535 8.968017042514354e7 0.00017967310505896686
0.54 8.971188101464038e7 0.00016696609629645646
0.545 8.97414346521204e7 0.0001560947315143869
0.55 8.976915993911412e7 0.00014697977745440765
0.555 8.979537155323364e7 0.00013954826030138315
0.56 8.982037243449266e7 0.00013374484620594935
0.5650000000000001 8.984445734787327e7 0.00012953550497637515
0.5700000000000001 8.986791672917584e7 0.0001269069430526578
0.5750000000000001 8.989104042051727e7 0.00012586596423633253
0.58 8.991412145779017e7 0.00012644067697148846
0.585 8.993746010667254e7 0.00012868200405314367
0.59 8.996136782704115e7 0.0001326613902619907
0.595 8.998617015500854e7 0.0001384612629198732
0.6 9.001220709111048e7 0.00014615731022416805
0.605 9.003982969277538e7 0.00015579471060988951
0.61 9.00693920473327e7 0.00016736140652804965
0.615 9.010123833664088e7 0.000180761175456099
0.62 9.013568519563445e7 0.00019578911516121426
0.625 9.017300007137634e7 0.00021211243858146024
0.63 9.021337696396321e7 0.00022926105909223127
0.635 9.025691174886632e7 0.0002466324297822185
0.64 9.030357995844273e7 0.00026351358619911745
0.645 9.035322019336793e7 0.0002791206461683276
0.65 9.04055262544074e7 0.00029265463497558686
0.655 9.046005070024154e7 0.0003033705622257901
0.66 9.051622178151402e7 0.0003106545650414548
0.665 9.057337438907531e7 0.00031409995875290555
0.67 9.063079368900862e7 0.00031356986975304886
0.675 9.068776778337468e7 0.0003092332658025991
0.68 9.074364359821971e7 0.00030156420407312167
0.685 9.079787867492157e7 0.00029129780106793517
0.6900000000000001 9.085008100826062e7 0.0002793435974273231
0.6950000000000001 9.09000302076361e7 0.00026666803006284925
0.7000000000000001 9.09476762793532e7 0.0002541673283991112
0.705 9.099311649906184e7 0.0002425551141410431
0.71 9.103655504565164e7 0.000232286361113589
0.715 9.107825320380248e7 0.00022353033825095816
0.72 9.111847921868742e7 0.00021619386412620963
0.725 9.115746603968522e7 0.0002099842898747031
0.73 9.119538248741922e7 0.0002044932512025356
0.735 9.123231984750175e7 0.00019928155091501876
0.74 9.12682928367903e7 0.00019395138720317286
0.745 9.130325200030813e7 0.00018819907780514533
0.75 9.133710375228189e7 0.0001818458962806472
0.755 9.13697341040904e7 0.0001748475386356791
0.76 9.140103230249327e7 0.00016728367590168513
0.765 9.143091095104308e7 0.00015932995806747149
0.77 9.145931994473696e7 0.00015121838056572092
0.775 9.148625293204333e7 0.0001431952319880393
0.78 9.151174672746938e7 0.00013548608634173566
0.785 9.153587549195899e7 0.00012827361617504326
0.79 9.155874209265831e7 0.0001216889461704751
0.795 9.15804687265731e7 0.00011581225289002498
0.8 9.160118793627183e7 0.00011067645061891719
0.805 9.162103414853466e7 0.00010626922203522198
0.81 9.164013553535141e7 0.00010253451122887697
0.8150000000000001 9.165860656535563e7 9.937857807118666e-5
0.8200000000000001 9.167654250035946e7 9.668520642379571e-5
0.8250000000000001 9.169401742902151e7 9.433916150034598e-5
0.8300000000000001 9.171108670721434e7 9.225090366058796e-5
0.835 9.172779306492734e7 9.037195472889871e-5
0.84 9.174417390519111e7 8.869256210089462e-5
0.845 9.176026648400983e7 8.722087117234926e-5
0.85 9.17761083600527e7 8.595204508411599e-5
0.855 9.179173264179507e7 8.484227412777016e-5
0.86 9.180716014168927e7 8.380095600649903e-5
0.865 9.18223922200493e7 8.270605510535296e-5
0.87 9.183740802800308e7 8.143683089321068e-5
0.875 9.185216807112242e7 7.991020301839037e-5
0.88 9.186662351474142e7 7.810715051689917e-5
0.885 9.188072868295676e7 7.608122386279101e-5
0.89 9.189445338671225e7 7.394816455631271e-5
0.895 9.190779208409438e7 7.186165736876788e-5
0.9 9.192076817078401e7 6.99843441779463e-5
0.905 9.19334337093955e7 6.846695107099425e-5
0.91 9.19458670129766e7 6.744570435246753e-5
0.915 9.19581716564949e7 6.706052431810259e-5
0.92 9.19704800366581e7 6.748655088571366e-5
0.925 9.198296246032736e7 6.896305286816586e-5
0.93 9.199583961381476e7 7.18014763147483e-5
0.935 9.200939347448201e7 7.636036840449253e-5
0.9400000000000001 9.202397052189432e7 8.298627740923565e-5
0.9450000000000001 9.20399721519321e7 9.193296391144898e-5
0.9500000000000001 9.205783023184836e7 0.00010327976023458005
0.9550000000000001 9.20779696419537e7 0.00011687095740928892
0.96 9.210076323610707e7 0.00013229354563860783
0.965 9.212648694747402e7 0.00014890106176564528
0.97 9.215528314499138e7 0.0001658799330966241
0.975 9.218713878560749e7 0.00018234487120368892
0.98 9.2221882004905e7 0.0001974450343424235
0.985 9.225919755865517e7 0.0002104639309374174
0.99 9.229865873602727e7 0.00022089957336276605
0.995 9.233977136615379e7 0.00022851652071813076
1.0 9.238202437112598e7 0.00023336539730561695
1.0050000000000001 9.242494072779484e7 0.00023576784293796117
1.01 9.246812256765817e7 0.00023626748408607986
1.0150000000000001 9.251128465130077e7 0.00023555188099085605
1.02 9.255427190029259e7 0.00023435630726402888
1.025 9.259705894365938e7 0.00023336336544973788
1.03 9.263973235728726e7 0.00023311418207565127
1.035 9.268245904070878e7 0.00023394567561825104
1.04 9.272544635007419e7 0.00023596317260130012
1.045 9.276890050122294e7 0.00023904888137590998
1.05 9.2812989025622e7 0.00024289772160831575
1.055 9.285781110784623e7 0.00024706765058430346
1.06 9.290337731678498e7 0.0002510320229295974
1.065 9.294959847328036e7 0.00025422710430486465
1.07 9.29962827725972e7 0.00025609479408251324
1.075 9.304314071097513e7 0.00025612521173095493
1.08 9.308979812270014e7 0.00025390276927771555
1.085 9.313581791091454e7 0.00024915513302798406
1.09 9.318073035657348e7 0.00024179803249381788
1.095 9.322407010540745e7 0.00023196345101001033
1.1 9.32654156034972e7 0.00021999820170081217
1.105 9.330442495962214e7 0.00020642629141070978
1.11 9.334086203398426e7 0.0001918797179402555
1.115 9.337460831761277e7 0.00017701234591710295
1.12 9.34056592456869e7 0.0001624158728498823
1.125 9.34341068325388e7 0.0001485543406749299
1.1300000000000001 9.346011293076323e7 0.00013572713317626828
1.135 9.348387856307432e7 0.00012406304842378483
1.1400000000000001 9.350561468154398e7 0.0001135418295162584
1.145 9.352551877090904e7 0.0001040365173609471
1.1500000000000001 9.354376037858222e7 9.536867868300983e-5
1.155 9.356047720023972e7 8.736856463293e-5
1.16 9.357578178284717e7 7.993101498051895e-5
1.165 9.35897771491624e7 7.30570776122731e-5
1.17 9.360257776380035e7 6.687077946823261e-5
1.175 9.361433057296172e7 6.160316081210415e-5
1.18 9.362523002260733e7 5.754241738084188e-5
1.185 9.363552177284706e7 5.496019263693825e-5
1.19 9.364549258393946e7 5.40341227878745e-5
1.195 9.365544788571721e7 5.479065506319016e-5
1.2 9.366568233480707e7 5.708557666360355e-5
1.205 9.367645082405815e7 6.062842906818695e-5
1.21 9.368794737559484e7 6.504427226827956e-5
1.215 9.370029713827784e7 6.995516928283102e-5
1.22 9.37135629036751e7 7.505740839988326e-5
1.225 9.372776335515806e7 8.017253967114882e-5
1.23 9.374289707843982e7 8.525931874338204e-5
1.235 9.375896522980726e7 9.03870897776437e-5
1.24 9.37759868738117e7 9.568226992485352e-5
1.245 9.379400373706578e7 0.00010126616870256758
1.25 9.381307440537715e7 0.00010720177016474
1.2550000000000001 9.383326070560879e7 0.00011346151934541023
1.26 9.385461061775908e7 0.00011992160642370874
1.2650000000000001 9.387714249767438e7 0.0001263820095856482
1.27 9.390083473565714e7 0.00013260587373571065
1.2750000000000001 9.392562341484222e7 0.00013836757998406725
1.28 9.3951408504895e7 0.00014349797863539654
1.285 9.397806715398437e7 0.0001479167498872868
1.29 9.400547102414118e7 0.00015164424270041937
1.295 9.403350359396632e7 0.0001547892790435893
1.3 9.406207322611342e7 0.0001575150529667866
1.305 9.409111882098778e7 0.00015999218893295508
1.31 9.41206070641925e7 0.00016235379188977924
1.315 9.415052289849934e7 0.00016466633219167575
1.32 9.418085684559797e7 0.00016692432452944058
1.325 9.421159343096632e7 0.0001690677075806469
1.33 9.424270409778209e7 0.00017101353561726744
1.335 9.427414608599916e7 0.00017268949411339393
1.34 9.43058665957473e7 0.0001740581488690876
1.345 9.43378099143585e7 0.0001751250933122512
1.35 9.43699245063355e7 0.00017593039608187206
1.355 9.440216741539416e7 0.00017652777081996027
1.36 9.443450428117427e7 0.00017695746884758805
1.365 9.44669045124511e7 0.00017722044054204885
1.37 9.449933237380527e7 0.00017725950259111034
1.375 9.45317357019912e7 0.0001769522601600662
1.3800000000000001 9.456403454952915e7 0.00017611738921701546
1.385 9.459611210497488e7 0.00017453324130037572
1.3900000000000001 9.462780995236835e7 0.0001719666718052839
1.395 9.465892932707669e7 0.00016820976031699112
1.4000000000000001 9.468923951775241e7 0.0001631212068918483
1.405 9.471849376574694e7 0.00015666689298188
1.41 9.47464517149859e7 0.00014895092584433272
1.415 9.477290576481721e7 0.0001402272588436098
1.42 9.479770714154391e7 0.00013088499600495324
1.425 9.482078689341496e7 0.0001214075940424763
1.43 9.484216775008526e7 0.00011231379676305662
1.435 9.486196471245149e7 0.00010409350858086981
1.44 9.488037458265299e7 9.715102218727293e-5
1.445 9.489765652932565e7 9.17637942023855e-5
1.45 9.491410668810235e7 8.805846678587309e-5
1.455 9.493002982914336e7 8.600278470984737e-5
1.46 9.494571078655876e7 8.541107549271733e-5
1.465 9.4961387983993e7 8.596168308323807e-5
1.47 9.49772312297172e7 8.722620562570721e-5
1.475 9.499332602344938e7 8.871143961524445e-5
1.48 9.500966651880842e7 8.991205338403686e-5
1.485 9.50261585617112e7 9.036805717928785e-5
1.49 9.504263285903831e7 8.971807048299011e-5
1.495 9.505886677895677e7 8.77404102538457e-5
1.5 9.507461202439694e7 8.437620413900277e-5
1.5050000000000001 9.508962466323121e7 7.973203914002438e-5
1.51 9.510369371274439e7 7.406150946448768e-5
1.5150000000000001 9.511666450063668e7 6.772656913273505e-5
1.52 9.512845345643733e7 6.114250231757931e-5
1.5250000000000001 9.513905200735925e7 5.4713849938499866e-5
1.53 9.514851907854545e7 4.877391383988167e-5
1.5350000000000001 9.515696411174844e7 4.35416063497543e-5
1.54 9.516452460011919e7 3.910465448262324e-5
1.545 9.517134311731449e7 3.543086795841051e-5
1.55 9.51775484699867e7 3.2401945260835294e-5
1.555 9.518324406864509e7 2.9858574063683604e-5
1.56 9.518850444271006e7 2.764435772203334e-5
1.565 9.51933788914417e7 2.5639893442920134e-5
1.57 9.519790026794471e7 2.3784805527529948e-5
1.575 9.520209699528354e7 2.2091043395914333e-5
1.58 9.520600694872724e7 2.0649982884054448e-5
1.585 9.520969204637924e7 1.9633068529201465e-5
1.59 9.521325215834215e7 1.9283721952789883e-5
1.595 9.52168364884638e7 1.9897805432259797e-5
1.6 9.522065019840704e7 2.179115052623015e-5
1.605 9.522495406010461e7 2.5255820383300966e-5
1.61 9.523005556495912e7 3.0510458217658208e-5
1.615 9.52362912636392e7 3.7654077497105435e-5
1.62 9.524400196716645e7 4.6634236124473545e-5
1.625 9.525350422671989e7 5.7238183622925394e-5
1.6300000000000001 9.52650625571596e7 6.910984383988747e-5
1.635 9.527886678413051e7 8.178883979999323e-5
1.6400000000000001 9.529501754569376e7 9.476060877212987e-5
1.645 9.531352073130578e7 0.00010750398437542662
1.6500000000000001 9.533428936882243e7 0.00011952503136625254
1.655 9.535715023521902e7 0.00013037484737129154
1.6600000000000001 9.538185279688343e7 0.00013965722654090705
1.665 9.540807944522843e7 0.0001470351554278918
1.67 9.54354573551299e7 0.00015224205680889282
1.675 9.54635727152485e7 0.00015509647369090854
1.68 9.549198733716631e7 0.0001555133889695767
1.685 9.55202563814292e7 0.0001535051150013075
1.69 9.55479450912611e7 0.00014916955661372735
1.695 9.55746425238641e7 0.00014266912764200528
1.7 9.559997109416777e7 0.00013420605887556303
1.705 9.562359184835021e7 0.0001240004107954593
1.71 9.56452062618928e7 0.0001122740693405954
1.715 9.566455560992792e7 9.924021204180628e-5
1.72 9.568141867185594e7 8.509563323533373e-5
1.725 9.569560809693305e7 7.00137814556087e-5
1.73 9.570696552906558e7 5.413815852194755e-5
1.735 9.57153558803933e7 3.757961555633133e-5
1.74 9.572066188860962e7 2.0422158604150557e-5
1.745 9.572278080686802e7 2.740455035267324e-6
1.75 9.5721625232971e7 -1.5372424956402523e-5
1.7550000000000001 9.571712926329592e7 -3.377454336739181e-5
1.76 9.570925956858796e7 -5.225175673251404e-5
1.7650000000000001 9.569802935613456e7 -7.050950181646936e-5
1.77 9.5683512268752e7 -8.818170059012647e-5
1.7750000000000001 9.566585336892575e7 -0.00010485371848201656
1.78 9.564527520390896e7 -0.00012009317780823759
1.7850000000000001 9.562207815109824e7 -0.00013348166856474961
1.79 9.559663541847642e7 -0.00014464146494503295
1.795 9.556938383119597e7 -0.0001532548719056084
1.8 9.554081151439309e7 -0.0001590788069877165
1.805 9.55114430152143e7 -0.00016195821130524896
1.81 9.548182184702797e7 -0.00016184081754391119
1.815 9.545249031745866e7 -0.00015879207341592858
1.82 9.54239669778553e7 -0.00015300621910850602
1.825 9.539672286774857e7 -0.00014480838222223158
1.83 9.53711586160158e7 -0.00013464311787800092
1.835 9.53475850350321e7 -0.00012304768557142788
1.84 9.53262097742045e7 -0.00011061253518013803
1.845 9.530713175576255e7 -9.793575045821174e-5
1.85 9.529034370875913e7 -8.558008125271303e-5
1.855 9.527574155354095e7 -7.404102649703835e-5
1.86 9.52631380660337e7 -6.373196710409261e-5
1.865 9.525227762762381e7 -5.49871660471101e-5
1.87 9.524284929848425e7 -4.80770952868105e-5
1.875 9.523449689798205e7 -4.322582545551721e-5
1.8800000000000001 9.522682669367997e7 -4.061977740942435e-5
1.885 9.521941478274696e7 -4.040233309261854e-5
1.8900000000000001 9.521181640299974e7 -4.2658131216657755e-5
1.895 9.520357813774638e7 -4.739713843642625e-5
1.9000000000000001 9.519425203589386e7 -5.45496417780232e-5
1.905 9.518340924933982e7 -6.397653295230094e-5
1.9100000000000001 9.517065079169129e7 -7.54904917868466e-5
1.915 9.515561456768689e7 -8.887556898416175e-5
1.92 9.513798016941586e7 -0.00010389201528414775
1.925 9.511747471840766e7 -0.0001202600195303676
1.93 9.509388317701162e7 -0.00013762711527332507
1.935 9.506706478599708e7 -0.00015553380637504518
1.94 9.503697425947107e7 -0.00017339593756153998
1.945 9.500368331429917e7 -0.0001905186673019891
1.95 9.496739627273954e7 -0.0002061472826352636
1.955 9.492845365386152e7 -0.00021954768300948272
1.96 9.488732001219352e7 -0.0002300980953540586
1.965 9.48445562052566e7 -0.00023736757206839227
1.97 9.48007804775044e7 -0.00024115974475038074
1.975 9.475662575095354e7 -0.0002415105363936148
1.98 9.471270116268674e7 -0.0002386440251659664
1.985 9.466956387146467e7 -0.00023290432556082215
1.99 9.462770336001012e7 -0.0002246871127930566
1.995 9.458753667090893e7 -0.00021438857933610414
2.0 9.45494109224444e7 -0.00020237689896202877
2.005 9.451360942776683e7 -0.00018898137344067396
2.0100000000000002 9.448035884903903e7 -0.00017449197214029836
2.015 9.44498359536141e7 -0.00015916414277529405
2.02 9.4422173239397e7 -0.00014322636196333665
2.025 9.43974631120917e7 -0.00012688841453219223
