# Created by MD - Bulk Evaluation, Folder: ./EMD_LJ
# t η(t) ACF_η η_V(t) ACF_η_V
# ps Pa*s Pa^2 Pa*s Pa^2
0.0 0.0 0.0027052622058000627 0.0 0.2380759734526966
0.005 6.225479737702377e-11 0.002686295890695576 5.496755180790437e-9 0.2379688640232788
0.01 1.236649048508595e-10 0.0026321080895159773 1.0989985923472927e-8 0.23777074054507838
0.015 1.834606090355434e-10 0.0025464809769641305 1.647771650640642e-8 0.23749252433419463
0.02 2.409803676432251e-10 0.002435000503918148 2.195828278654813e-8 0.2371502782457763
0.025 2.957029688186268e-10 0.0023042339946174736 2.7430422320900275e-8 0.23676272853688196
0.03 3.472607663420845e-10 0.002160913630739272 3.2893307476893615e-8 0.2363488055774664
0.035 3.954359023490945e-10 0.002011279606279181 3.8346527393860034e-8 0.23592567340336984
0.04 4.401440128865571e-10 0.0018606529274896222 4.379003260674001e-8 0.23550746653728707
0.045 4.814106907204282e-10 0.0017132353568661137 4.92240586492389e-8 0.23510473268923743
0.05 5.193454257472537e-10 0.0015720910178009628 5.4649043385179874e-8 0.2347244468885407
0.055 5.541165220291055e-10 0.0014392493701067917 6.00655491177491e-8 0.23437041113964047
0.06 5.859291415910568e-10 0.0013158730268264982 6.547419628931914e-8 0.23404385856497495
0.065 6.150074650104498e-10 0.0012024464709445802 7.087561182368355e-8 0.2337441173635628
0.07 6.415811130526849e-10 0.0010989563653356605 7.627039233698339e-8 0.23346923455128582
0.075 6.658754490255404e-10 0.0010050473312818366 8.165908066531443e-8 0.23321650550747097
0.08 6.881051238325227e-10 0.0009201470029349086 8.704215329698777e-8 0.23298288882280635
0.085 7.084701577776441e-10 0.0008435606674517666 9.242001608939422e-8 0.2327653089368617
0.09 7.271539019723749e-10 0.0007745394072442523 9.779300585275268e-8 0.23256086160037942
0.095 7.443223310763611e-10 0.000712327257490658 1.0316139579262753e-7 0.2323669426006546
0.1 7.601242472316192e-10 0.000656192962261411 1.0852540327933702e-7 0.23218132055543797
0.105 7.746920933289672e-10 0.0006054509894323689 1.1388519884465712e-7 0.23200217040918164
0.11 7.881431634436498e-10 0.0005594749124889753 1.192409156298572e-7 0.23182807902378824
0.115 8.005810523779649e-10 0.0005177047365104729 1.245926586836286e-7 0.23165802658797102
0.12 8.120972126888159e-10 0.0004796488808902066 1.2994051354796022e-7 0.23149134354091142
0.125 8.227725038673792e-10 0.00044488151694649077 1.352845535925665e-7 0.2313276452673063
0.13 8.326786397132275e-10 0.00041303641347759475 1.406248456818988e-7 0.23116675299601516
0.135 8.418794717014094e-10 0.0003837988874222368 1.4596145402447592e-7 0.23100861548195842
0.14 8.504320838614339e-10 0.00035689752924604587 1.5129444235551065e-7 0.23085324297970147
0.145 8.58387708193755e-10 0.0003320969352582169 1.5662387480904276e-7 0.23070065977500137
0.15 8.657924892715055e-10 0.0003091919140290261 1.6194981590391e-7 0.23055087490733406
0.155 8.726881291358132e-10 0.00028800291283331456 1.6727233002355844e-7 0.23040386761174336
0.16 8.791124340430458e-10 0.00026837209112319353 1.72591480689903e-7 0.23025958404048488
0.165 8.850997735123423e-10 0.000250159651846842 1.7790732985221275e-7 0.23011794184284412
0.17 8.906814565494002e-10 0.00023324033720556827 1.832199373628596e-7 0.22997884176827263
0.17500000000000002 8.958860318169632e-10 0.00021750034632297562 1.8852936075411824e-7 0.2298421821361213
0.18 9.007395266536741e-10 0.00020283512155574665 1.938356553238268e-7 0.22970787111424248
0.185 9.052656498463535e-10 0.00018914842306079775 1.9913887443492615e-7 0.22957583296364417
0.19 9.094859886819645e-10 0.0001763527588206374 2.0443906988878575e-7 0.22944600818389455
0.195 9.134202269286542e-10 0.0001643707671756673 2.0973629227678455e-7 0.2293183514844129
0.2 9.170863962895673e-10 0.0001531367331900019 2.1503059130826127e-7 0.22919283176720281
0.20500000000000002 9.205011554346983e-10 0.00014259746067497265 2.2032201617085198e-7 0.22906943494815726
0.21 9.236800781248012e-10 0.00013271218757839149 2.2561061597868693e-7 0.22894816874548202
0.215 9.26637928425573e-10 0.00012345155255517824 2.3089644035114657e-7 0.22882906919803098
0.22 9.293889015124457e-10 0.00011479564837847897 2.361795401531907e-7 0.2287122081400655
0.225 9.319468082419138e-10 0.00010673109844912031 2.414599683994717e-7 0.2285976999106099
0.23 9.343251806553846e-10 9.924713266881396e-5 2.467377812613527e-7 0.2284857035567789
0.23500000000000001 9.365372791832405e-10 9.233099834467588e-5 2.5201303904074885e-7 0.22837641775662937
0.24 9.385959953195799e-10 8.596349655247561e-5 2.572858069202883e-7 0.22827006652488369
0.245 9.405136650064022e-10 8.011571279391626e-5 2.625561552947674e-7 0.2281668772448817
0.25 9.423018316487972e-10 7.47479241447931e-5 2.678241595708974e-7 0.2280670565888597
0.255 9.439710154249329e-10 6.981123726829903e-5 2.7308989945801763e-7 0.22797077051229453
0.26 9.45530549729327e-10 6.525176445835003e-5 2.783534578934686e-7 0.2278781326199203
0.265 9.469885324834453e-10 6.1016395646682354e-5 2.836149197998795e-7 0.22778920124221932
0.27 9.483519128867581e-10 5.705875617783155e-5 2.888743708567141e-7 0.22770398359403482
0.275 9.49626700599257e-10 5.3343852170509905e-5 2.9413189640622625e-7 0.22762244325682432
0.28 9.508182534861141e-10 4.985022901224795e-5 2.993875805370548e-7 0.22754450808002424
0.28500000000000003 9.519315796568115e-10 4.656905082757994e-5 3.0464150533243953e-7 0.2274700765371704
0.29 9.529715845678753e-10 4.350026326372178e-5 3.098937502321191e-7 0.22739902121526734
0.295 9.539432085395092e-10 4.064694003191695e-5 3.15144391411183e-7 0.22733118679312628
0.3 9.548514318263728e-10 3.800946593225873e-5 3.2039350104940973e-7 0.22726638257943907
0.305 9.55701163697368e-10 3.5581308465214726e-5 3.2564114642241223e-7 0.22720437454157438
0.31 9.564970645757682e-10 3.334744892752266e-5 3.3088738887696844e-7 0.22714488324716517
0.315 9.572433647462364e-10 3.128565399846055e-5 3.3613228289289803e-7 0.22708759341787743
0.32 9.579437380715945e-10 2.9369968250889235e-5 3.413758755203078e-7 0.22703217688384472
0.325 9.586012696299197e-10 2.757535558524655e-5 3.466182064585202e-7 0.22697832520259537
0.33 9.592185300237754e-10 2.588229610351023e-5 3.518593088986296e-7 0.22692578317321943
0.335 9.597977453783616e-10 2.428047634474212e-5 3.570992110537722e-7 0.22687437488222875
0.34 9.603410358214929e-10 2.2771029897667305e-5 3.6233793815724255e-7 0.22682401817476686
0.34500000000000003 9.60850684961008e-10 2.1366981312816344e-5 3.6757551464979597e-7 0.22677472656815714
0.35000000000000003 9.61329396751077e-10 2.0091710007019576e-5 3.728119662527265e-7 0.2267265974455803
0.355 9.617804955282994e-10 1.8975564598691317e-5 3.780473216141529e-7 0.22667978690074606
0.36 9.622080315562148e-10 1.8051065154664772e-5 3.832816132703139e-7 0.22663447556946548
0.365 9.62616767605502e-10 1.7347398075675933e-5 3.885148778000454e-7 0.22659083292363408
0.37 9.63012040522734e-10 1.6885094632038112e-5 3.937471552478984e-7 0.2265489896387973
0.375 9.633995119202134e-10 1.6671749792161383e-5 3.9897848804272626e-7 0.2265090215310555
0.38 9.637848391094141e-10 1.6699396115739968e-5 4.042089196684603e-7 0.22647094415912228
0.385 9.641733077709632e-10 1.6943816064759232e-5 4.0943849328371345e-7 0.22643471379006166
0.39 9.645694722848365e-10 1.7365893103209874e-5 4.1466725039147933e-7 0.2264002307726243
0.395 9.649768491864147e-10 1.791486154655518e-5 4.198952295970765e-7 0.22636734380550294
0.4 9.653977023654585e-10 1.853300208027018e-5 4.2512246548794877e-7 0.22633585622330496
0.405 9.658329447750713e-10 1.9161036553725353e-5 4.303489877151823e-7 0.22630553717973126
0.41000000000000003 9.662821635755097e-10 1.9743423225393307e-5 4.3557482037265304e-7 0.22627613624027357
0.41500000000000004 9.667437589510447e-10 2.023290613587012e-5 4.407999817014321e-7 0.22624739695923052
0.42 9.67215174013099e-10 2.059385423802303e-5 4.4602448404141746e-7 0.2262190647131687
0.425 9.67693185177487e-10 2.0804159604255054e-5 4.512483338919452e-7 0.22619088830492337
0.43 9.681742192615034e-10 2.0855653288092103e-5 4.5647153198548663e-7 0.22616261949431074
0.435 9.686546656674983e-10 2.0753263924804974e-5 4.616940733869282e-7 0.22613401568231628
0.44 9.691311581219436e-10 2.051322249760966e-5 4.669159477213801e-7 0.22610484835714745
0.445 9.696008072745395e-10 2.016060181591999e-5 4.7213713963518285e-7 0.2260749148463743
0.45 9.700613722672313e-10 1.9726491547683576e-5 4.773576295036535e-7 0.22604404793119637
0.455 9.70511367413041e-10 1.9245203389974424e-5 4.825773943005847e-7 0.2260121202426248
0.46 9.709501089029123e-10 1.875187204267127e-5 4.877964085118115e-7 0.22597904368093677
0.465 9.713777125766444e-10 1.8280616156327435e-5 4.930146450070461e-7 0.22594476638182456
0.47000000000000003 9.717950535930505e-10 1.7863077676303823e-5 4.982320758179213e-7 0.22590926762814434
0.47500000000000003 9.722036937052841e-10 1.7527076954207163e-5 5.034486727830365e-7 0.22587255141929105
0.48 9.726057774781172e-10 1.7295267864638744e-5 5.086644080269081e-7 0.22583463851771762
0.485 9.730038988348092e-10 1.7183913090139836e-5 5.13879254261223e-7 0.2257955590127367
0.49 9.734009433416488e-10 1.720200760535574e-5 5.190931849584246e-7 0.22575534869989738
0.495 9.73799915033204e-10 1.7350816345611476e-5 5.243061744876693e-7 0.22571404944352105
0.5 9.742037566160012e-10 1.762376307903858e-5 5.295181982784754e-7 0.2256717112114666
0.505 9.746151703667517e-10 1.800660168519463e-5 5.347292330174228e-7 0.22562839290321188
0.51 9.750364466152579e-10 1.8477901745779768e-5 5.399392568398568e-7 0.22558416108943122
0.515 9.754693083085296e-10 1.900995566203302e-5 5.451482494469244e-7 0.22553908480495377
0.52 9.759147814882437e-10 1.957011575498301e-5 5.503561920602936e-7 0.2254932266993763
0.525 9.763731007992608e-10 2.01224910193051e-5 5.555630671436196e-7 0.22544663168517673
0.53 9.768436580986946e-10 2.0629983079387913e-5 5.607688578781248e-7 0.22539931699403912
0.535 9.773250024218895e-10 2.1056697984074377e-5 5.659735474490166e-7 0.22535126574016828
0.54 9.778149000894137e-10 2.1370742905283122e-5 5.711771182289085e-7 0.2253024244342316
0.545 9.783104605689374e-10 2.1547124122740906e-5 5.76379550946913e-7 0.22525270423094698
0.55 9.788083242164157e-10 2.1570208076652278e-5 5.815808239359949e-7 0.2252019864579678
0.555 9.793048923787717e-10 2.143492902138293e-5 5.867809125529118e-7 0.22515013203401507
0.56 9.797965622618357e-10 2.1145994064406536e-5 5.919797888334793e-7 0.22509699243121933
0.5650000000000001 9.802799163354984e-10 2.0714740836952608e-5 5.971774213970925e-7 0.22504242029936836
0.5700000000000001 9.807518161049082e-10 2.015399747221241e-5 6.023737755600497e-7 0.2249862769250342
0.5750000000000001 9.8120936759786e-10 1.947211264836051e-5 6.075688135849159e-7 0.22492843655392805
0.58 9.816497598116216e-10 1.8667923232818394e-5 6.127624949968565e-7 0.22486878786850056
0.585 9.820700172517284e-10 1.7728346601568234e-5 6.179547769166303e-7 0.22480723395366778
0.59 9.824667404526016e-10 1.6629747486754195e-5 6.231456144007479e-7 0.22474369295071603
0.595 9.828359217262268e-10 1.5343086234633467e-5 6.28334960835728e-7 0.2246781020894051
0.6 9.831729105492917e-10 1.3841729939826903e-5 6.335227684928353e-7 0.2246104275534693
0.605 9.83472566847387e-10 1.2109914081694348e-5 6.387089893763109e-7 0.2245406800339051
0.61 9.83729592145333e-10 1.0149684929646566e-5 6.438935764615832e-7 0.22446893294898743
0.615 9.83938984633207e-10 7.984688820012022e-6 6.490764852982122e-7 0.2243953358125115
0.62 9.840965370064797e-10 5.66008731811363e-6 6.542576757743789e-7 0.22432011485526096
0.625 9.841992896182434e-10 3.2387718741015585e-6 6.594371137072651e-7 0.2242435573261595
0.63 9.842458637048044e-10 7.947629547364034e-7 6.64614771923183e-7 0.2241659829996961
0.635 9.842366248196073e-10 -1.5948938423345919e-6 6.69790630646784e-7 0.22408771283287685
0.64 9.841736580415522e-10 -3.858325127770293e-6 6.749646772284951e-7 0.22400904299334862
0.645 9.84060566452321e-10 -5.935938113902426e-6 6.801369053921707e-7 0.22393022928314715
0.65 9.839021278832929e-10 -7.78558674259908e-6 6.853073142465614e-7 0.223851482257297
0.655 9.83703860534122e-10 -9.38529769884991e-6 6.90475907275682e-7 0.22377297027892165
0.66 9.834715556756882e-10 -1.073339504647502e-5 6.956426914476883e-7 0.22369482672832583
0.665 9.832108355426975e-10 -1.1846194048056403e-5 7.008076764870555e-7 0.22361715693510675
0.67 9.829267866181548e-10 -1.2753778057761472e-5 7.059708742943251e-7 0.22354004402730016
0.675 9.826237049747372e-10 -1.3494516970192371e-5 7.111322984654615e-7 0.2234635517085914
0.68 9.823049737677178e-10 -1.4109103830458173e-5 7.162919638340567e-7 0.22338772345958116
0.685 9.81973073977972e-10 -1.4634978136218944e-5 7.214498859612113e-7 0.2233125788052885
0.6900000000000001 9.81629710486475e-10 -1.5101914290092772e-5 7.266060805415266e-7 0.22323810978255865
0.6950000000000001 9.8127601989336e-10 -1.5529353681457683e-5 7.317605627830417e-7 0.22316428221589318
0.7000000000000001 9.809128162193694e-10 -1.5925791812284554e-5 7.369133468992883e-7 0.22309104415177705
0.705 9.805408275260016e-10 -1.6290177655691907e-5 7.42064445843162e-7 0.2230183383669319
0.71 9.801608821161255e-10 -1.6614880864326003e-5 7.47213871311904e-7 0.22294611333886502
0.715 9.797740174803997e-10 -1.6889415139799978e-5 7.523616339572956e-7 0.22287433004822968
0.72 9.7938150503383e-10 -1.710400783228703e-5 7.575077437094645e-7 0.22280296501595134
0.725 9.789848030685855e-10 -1.7252247150903266e-5 7.626522101534297e-7 0.22273201183299804
0.73 9.785854650339928e-10 -1.7332303829190274e-5 7.677950429376065e-7 0.22266148239887792
0.735 9.781850381990464e-10 -1.7346542379961368e-5 7.729362522118993e-7 0.22259140824559237
0.74 9.77784988222521e-10 -1.7299666118147337e-5 7.780758490746217e-7 0.22252183997711272
0.745 9.77386678015844e-10 -1.7195870133012928e-5 7.832138459656146e-7 0.2224528431727319
0.75 9.769914146319002e-10 -1.7035796947077367e-5 7.883502569387805e-7 0.22238449203833144
0.755 9.766005572211857e-10 -1.6814292140006663e-5 7.934850977835766e-7 0.22231686267507575
0.76 9.762156561775749e-10 -1.6519947556722426e-5 7.986183860062468e-7 0.22225002766388846
0.765 9.75838576791185e-10 -1.6136899856867523e-5 8.037501406981292e-7 0.2221840517000252
0.77 9.754715612032354e-10 -1.5648375304601084e-5 8.088803823152087e-7 0.22211898827346882
0.775 9.751172033733072e-10 -1.5040678511413252e-5 8.140091323822204e-7 0.22205487645272898
0.78 9.747783434508266e-10 -1.4306183667948375e-5 8.191364131271642e-7 0.22199173807544018
0.785 9.744579163026636e-10 -1.3444313607864882e-5 8.242622470706425e-7 0.2219295766448946
0.79 9.74158801366692e-10 -1.24604459089661e-5 8.293866566227843e-7 0.22186837909004428
0.795 9.738837127306125e-10 -1.1363523095791102e-5 8.345096637262534e-7 0.22180811799716718
0.8 9.736351459387304e-10 -1.0163529529128034e-5 8.396312895274735e-7 0.2217487518220134
0.805 9.734153737132235e-10 -8.869778291941077e-6 8.447515540311537e-7 0.22169022323143484
0.81 9.73226466884371e-10 -7.490441088744866e-6 8.498704757158685e-7 0.22163245738715828
0.8150000000000001 9.7307031383952e-10 -6.033146630207444e-6 8.549880711500391e-7 0.22157536369991354
0.8200000000000001 9.72948620028055e-10 -4.506109493721254e-6 8.601043547224167e-7 0.22151884398928326
0.8250000000000001 9.728628822033063e-10 -2.9191891607178655e-6 8.652193386328257e-7 0.22146280686390815
0.8300000000000001 9.728143435785097e-10 -1.284483914121719e-6 8.703330332391488e-7 0.22140718419492517
0.835 9.72803942433876e-10 3.83695895824327e-7 8.754454477548942e-7 0.22135194500244715
0.84 9.728322677732848e-10 2.0694116470274697e-6 8.805565912080943e-7 0.2212971042034948
0.845 9.728995328070054e-10 3.7560564685137314e-6 8.856664735234235e-7 0.22124272453461444
0.85 9.73005573251819e-10 5.427544520995165e-6 8.907751065424378e-7 0.2211889092699468
0.855 9.73149874364868e-10 7.069610191050203e-6 8.958825047643442e-7 0.22113578530070047
0.86 9.733316278178835e-10 8.671093216009415e-6 9.009886856253282e-7 0.22108348009156853
0.865 9.735498145383196e-10 1.0224902412847077e-5 9.060936692481167e-7 0.2210320988450861
0.87 9.738033041965773e-10 1.1728493581358775e-5 9.11197477769326e-7 0.22098171077075066
0.875 9.74090959811916e-10 1.318383490144306e-5 9.163001344896331e-7 0.22093234747285997
0.88 9.744117365227048e-10 1.4596936140800102e-5 9.214016631075938e-7 0.22088401180455264
0.885 9.747647653818322e-10 1.597702255668758e-5 9.265020872068726e-7 0.22083669096291397
0.89 9.751494158624692e-10 1.7335517208527453e-5 9.316014300122002e-7 0.22079036666554414
0.895 9.755653364136138e-10 1.868515765523713e-5 9.366997142888655e-7 0.22074501740487434
0.9 9.760124803055846e-10 2.003960529686935e-5 9.417969621994697e-7 0.2207006124929986
0.905 9.764911283183067e-10 2.141356260492696e-5 9.468931949936686e-7 0.22065710355239496
0.91 9.770019154483457e-10 2.2823003934144133e-5 9.519884325267033e-7 0.22061441819773273
0.915 9.7754585815453e-10 2.4284991354990852e-5 9.57082692681911e-7 0.22057245803806072
0.92 9.781243678094398e-10 2.581666418382055e-5 9.621759907782933e-7 0.22053109938112186
0.925 9.787392278724951e-10 2.743310757452732e-5 9.672683389946115e-7 0.2204901939594088
0.93 9.793925086405984e-10 2.9144077846471695e-5 9.723597458020025e-7 0.22044956894270798
0.935 9.80086396829871e-10 3.094990113278785e-5 9.774502154048046e-7 0.22040902763646292
0.9400000000000001 9.808229272616152e-10 3.283709649473477e-5 9.825397472359838e-7 0.2203683535118893
0.9450000000000001 9.816036205804378e-10 3.477461475200494e-5 9.8762833560165e-7 0.22032731908803413
0.9500000000000001 9.824290546055626e-10 3.6711851974827684e-5 9.927159695794485e-7 0.22028569903622172
0.9550000000000001 9.83298422963202e-10 3.857953447174474e-5 9.978026332508788e-7 0.22024328599536164
0.96 9.842091522707866e-10 4.029390466725131e-5 1.002888306301386e-6 0.22019990660762417
0.965 9.851566483949982e-10 4.176371362282173e-5 1.0079729649646116e-6 0.22015543528859247
0.97 9.861342215785224e-10 4.289871938826801e-5 1.0130565832067189e-6 0.22010980124773855
0.975 9.87133207622935e-10 4.3618168031939675e-5 1.0181391339715434e-6 0.2200629867382154
0.98 9.881432693493202e-10 4.385792551105262e-5 1.0232205902748003e-6 0.22001501573101415
0.985 9.891528369338326e-10 4.3575373022939396e-5 1.0283009259624361e-6 0.21996593615795584
0.99 9.901496306145767e-10 4.27516453977368e-5 1.0333801160443733e-6 0.21991580089210408
0.995 9.911212058276127e-10 4.1391335174129734e-5 1.0384581366155143e-6 0.21986465102556416
1.0 9.9205546828236e-10 3.952018513243811e-5 1.0435349644417677e-6 0.21981250357792922
1.0050000000000001 9.929411217251936e-10 3.718156624412617e-5 1.0486105763345067e-6 0.2197593454675211
1.01 9.937680281123152e-10 3.4432413952788265e-5 1.0536849484845638e-6 0.21970513603384087
1.0150000000000001 9.945274729195546e-10 3.133907630692557e-5 1.0587580559361265e-6 0.2196498166330733
1.02 9.952123346018115e-10 2.7973164733617228e-5 1.063829872328335e-6 0.21959332422477607
1.025 9.95817158693662e-10 2.4407444741686938e-5 1.0689003699440722e-6 0.21953560439142913
1.03 9.963381388399725e-10 2.071188492123593e-5 1.073969520033297e-6 0.2194766220944625
1.035 9.967730115940044e-10 1.6950139801984407e-5 1.07903729334025e-6 0.21941636857442107
1.04 9.971208785995828e-10 1.3176778113591005e-5 1.0841036607381795e-6 0.21935486376463312
1.045 9.973819777686555e-10 9.435637287462272e-6 1.0891685938782683e-6 0.2192921551035081
1.05 9.97557434753741e-10 5.75976239884834e-6 1.0942320658009645e-6 0.2192283154694027
1.055 9.976490342690671e-10 2.173186213747094e-6 1.0992940515075321e-6 0.21916344180017766
1.06 9.976590505277788e-10 -1.305731125243223e-6 1.1043545284979925e-6 0.21909765356269026
1.065 9.975901631630385e-10 -4.6602384829868725e-6 1.109413477266304e-6 0.21903109057830913
1.07 9.974454621940332e-10 -7.871545634645172e-6 1.1144708817260568e-6 0.21896390918208203
1.075 9.972285204189975e-10 -1.091663187026597e-5 1.1195267295480385e-6 0.2188962784299474
1.08 9.969434933456884e-10 -1.3768052516649547e-5 1.1245810124171306e-6 0.21882837690543974
